# Results for "element" with Id # 102 for search config "initial" at position: x0: 0.5005; y0: 0.1261; z0: 0
# time DISPLACEMENT_X
0.1 9.215706839799119e-08
0.2 2.5302450375658474e-06
0.30000000000000004 1.1117184708272845e-05
0.4 2.5484228772677335e-05
0.5 4.754091588892679e-05
0.6 7.838738642041367e-05
0.7 0.00011824155115906092
0.7999999999999999 0.0001691564871585139
0.8999999999999999 0.0002323302415452696
0.9999999999999999 0.0003070081149144616
1.0999999999999999 0.00039235783503770573
1.2 0.0004935189588755469
1.3 0.0006099799799114404
1.4000000000000001 0.0007442499453894117
1.5000000000000002 0.0008949344953618247
1.6000000000000003 0.00106478897497068
1.7000000000000004 0.001255916711256578
1.8000000000000005 0.0014684690611633966
1.9000000000000006 0.001703067734776821
2.0000000000000004 0.0019593557636494027
2.1000000000000005 0.002238107087190834
2.2000000000000006 0.002538782754182521
2.3000000000000007 0.0028615406806443487
2.400000000000001 0.0032055300681580333
2.500000000000001 0.0035711756923695022
2.600000000000001 0.003957769638344736
2.700000000000001 0.004365700173383438
2.800000000000001 0.004794954682369593
2.9000000000000012 0.005246925213546238
3.0000000000000013 0.0057198394139366835
3.1000000000000014 0.006214370788795479
3.2000000000000015 0.006729203785549404
3.3000000000000016 0.007263716137877704
3.4000000000000017 0.007816705920559336
3.5000000000000018 0.008386831608511098
3.600000000000002 0.00897269817284109
3.700000000000002 0.009573147253950497
3.800000000000002 0.010186795572099698
3.900000000000002 0.010812353656144745
4.000000000000002 0.01144860465232447
4.100000000000001 0.012094501164689242
4.200000000000001 0.012748660606785141
4.300000000000001 0.013409633140782895
4.4 0.014075907636811345
4.5 0.014745869261063476
4.6 0.01541767265426587
4.699999999999999 0.01608950997148697
4.799999999999999 0.016759330890644273
4.899999999999999 0.01742528678466422
4.999999999999998 0.01808535987447797
5.099999999999998 0.018737855580537054
5.1999999999999975 0.019380950227951988
5.299999999999997 0.0200130821454994
5.399999999999997 0.02063266613891286
5.4999999999999964 0.021238385992818857
5.599999999999996 0.021828767117719198
5.699999999999996 0.02240260370151964
5.799999999999995 0.022958530913402168
5.899999999999995 0.023495424853968855
5.999999999999995 0.024012079757200336
6.099999999999994 0.024507538059340445
6.199999999999994 0.02498084216537192
6.299999999999994 0.025431377959451995
6.399999999999993 0.02585843119636668
6.499999999999993 0.026262300336947597
6.5999999999999925 0.026642008185887977
6.699999999999992 0.026997652545424175
6.799999999999992 0.027329250810511574
6.8999999999999915 0.02763790055705121
6.999999999999991 0.027923320939211013
7.099999999999991 0.028186911737089468
7.19999999999999 0.028428665286287038
7.29999999999999 0.02864871266555926
7.39999999999999 0.028848908271603926
7.499999999999989 0.029030850260052594
7.599999999999989 0.02919455029274558
7.699999999999989 0.02934023310647139
7.799999999999988 0.029469655461311237
7.899999999999988 0.029583016834155162
7.999999999999988 0.029682271979892965
8.099999999999987 0.029767593834981065
8.199999999999987 0.029842369714603034
8.299999999999986 0.029903052512112664
8.399999999999986 0.02995417062711834
8.499999999999986 0.029994091010539084
8.599999999999985 0.030024810650725355
8.699999999999985 0.030046733546419388
8.799999999999985 0.030060259948470107
8.899999999999984 0.030066077694730367
8.999999999999984 0.03006373866677778
9.099999999999984 0.03005422693147977
9.199999999999983 0.030037298012565293
9.299999999999983 0.030013514461547132
9.399999999999983 0.02998242826945935
9.499999999999982 0.029944482944860327
9.599999999999982 0.02989882031284096
9.699999999999982 0.029846269329867232
9.799999999999981 0.029786311397577116
9.89999999999998 0.02971884317319759
9.99999999999998 0.029643175644394892
10.09999999999998 0.029559583648729473
10.19999999999998 0.029470676259011418
10.29999999999998 0.0293761484807277
10.399999999999979 0.0292795170063128
10.499999999999979 0.029179635352318663
10.599999999999978 0.02907872562190278
10.699999999999978 0.02897607273729042
10.799999999999978 0.02887141585091166
10.899999999999977 0.028766840992613167
10.999999999999977 0.028658963624952804
11.099999999999977 0.028549984323049157
11.199999999999976 0.028440074313143958
11.299999999999976 0.02833009727983471
11.399999999999975 0.02821974087875213
11.499999999999975 0.028109510972673758
11.599999999999975 0.02800090290070844
11.699999999999974 0.02789387113044342
11.799999999999974 0.027788120984806167
11.899999999999974 0.02768607956630538
11.999999999999973 0.02758557578570404
12.099999999999973 0.02748683183571098
12.199999999999973 0.027390191449762926
12.299999999999972 0.027295075919551857
12.399999999999972 0.02719991303647539
12.499999999999972 0.02710599385933364
12.599999999999971 0.027013326871798585
12.69999999999997 0.026922384770213054
12.79999999999997 0.026832033191325697
12.89999999999997 0.026741446457067605
12.99999999999997 0.026652855138708898
13.09999999999997 0.026567657474676806
13.199999999999969 0.026483911512272543
13.299999999999969 0.026401509747523852
13.399999999999968 0.026320224653225
13.499999999999968 0.02624046591461068
13.599999999999968 0.02616283379995359
13.699999999999967 0.02608545957699836
13.799999999999967 0.026007738455718486
13.899999999999967 0.02593062725487614
13.999999999999966 0.02585392109877967
14.099999999999966 0.02577734349311884
14.199999999999966 0.025701274792407573
14.299999999999965 0.025625172401664228
14.399999999999965 0.025549923003354232
14.499999999999964 0.025476944795247054
14.599999999999964 0.025404542277669508
14.699999999999964 0.025332720266670217
14.799999999999963 0.025261486158912067
14.899999999999963 0.025190331617512014
14.999999999999963 0.025119941225175094
15.099999999999962 0.025049574409490245
15.199999999999962 0.024979511549619943
15.299999999999962 0.024908982985308865
15.399999999999961 0.02483857403699558
15.499999999999961 0.02476836943794384
15.59999999999996 0.024696593312500056
15.69999999999996 0.024626782805309756
15.79999999999996 0.024557599514169214
15.89999999999996 0.02448896966309944
15.99999999999996 0.024421074051011057
16.09999999999996 0.02435376303685514
16.19999999999996 0.024286950535066437
16.29999999999996 0.024220823390907736
16.399999999999963 0.024155696377387147
16.499999999999964 0.02409095147454663
16.599999999999966 0.02402677918674221
16.699999999999967 0.023962737509238125
16.79999999999997 0.02389895555092301
16.89999999999997 0.023836160781843543
16.99999999999997 0.023772528933527
17.099999999999973 0.023710764891423812
17.199999999999974 0.023650632321610375
17.299999999999976 0.02359131342809639
17.399999999999977 0.023533569623000364
17.49999999999998 0.023476873671879846
17.59999999999998 0.023421677717636327
17.69999999999998 0.023367651279676403
17.799999999999983 0.02331488750295708
17.899999999999984 0.023263339690927302
17.999999999999986 0.02321257420797016
18.099999999999987 0.023162938645037
18.19999999999999 0.0231146783658812
18.29999999999999 0.02306696346521317
18.39999999999999 0.02301896556746365
18.499999999999993 0.022972687305152513
18.599999999999994 0.022929439609314983
18.699999999999996 0.02288754599467815
18.799999999999997 0.022847555738725097
18.9 0.022808906293941025
19.0 0.022772043486387446
19.1 0.022736633248309285
19.200000000000003 0.022702871080155722
19.300000000000004 0.02267018457153966
19.400000000000006 0.022638027141346852
19.500000000000007 0.02260740947177104
19.60000000000001 0.022578317458817925
19.70000000000001 0.02254961053714689
19.80000000000001 0.022521305420716897
19.900000000000013 0.022494064300797475
20.000000000000014 0.02246968928853097
20.100000000000016 0.022446428399034466
20.200000000000017 0.022424980164983052
20.30000000000002 0.022404772092898144
20.40000000000002 0.022386095867577904
20.50000000000002 0.02236833566652064
20.600000000000023 0.02235183050358517
20.700000000000024 0.022335856383512567
20.800000000000026 0.022320590263146898
20.900000000000027 0.022305903008505826
21.00000000000003 0.02229233713043116
21.10000000000003 0.02227911701867391
21.20000000000003 0.022266805383767508
21.300000000000033 0.022255116455951015
21.400000000000034 0.022245158881959687
21.500000000000036 0.022235778936041513
21.600000000000037 0.02222756973405782
21.70000000000004 0.0222199938245673
21.80000000000004 0.02221317440547795
21.90000000000004 0.022206701723274432
22.000000000000043 0.022200824346349523
22.100000000000044 0.022195181848837453
22.200000000000045 0.022189966840624322
22.300000000000047 0.022184988877865148
22.40000000000005 0.022180520176358243
22.50000000000005 0.022176443558017088
22.60000000000005 0.022172768978300495
22.700000000000053 0.02216944630695864
22.800000000000054 0.02216649193339669
22.900000000000055 0.02216402818851104
23.000000000000057 0.022161808278805754
23.10000000000006 0.022159917187468632
23.20000000000006 0.02215818922000819
23.30000000000006 0.02215673606866283
23.400000000000063 0.02215535865871287
23.500000000000064 0.022154187463538585
23.600000000000065 0.022152789424955785
23.700000000000067 0.022151594580980455
23.800000000000068 0.022150540007911203
23.90000000000007 0.02214961802148249
24.00000000000007 0.02214866332438474
24.100000000000072 0.022147869983151502
24.200000000000074 0.022147164899837188
24.300000000000075 0.022146595864927975
24.400000000000077 0.022146103218611952
24.500000000000078 0.02214559808319079
24.60000000000008 0.02214518358667944
24.70000000000008 0.022144704361161255
24.800000000000082 0.02214431764492402
24.900000000000084 0.022143804574149602
25.000000000000085 0.022143405056129436
